in Minuten,HCOO- (formate) [mol/L],OH- (hydroxide) [mol/L],CH3OH (methanol) [mol/L],CO32- [mol/L],in Minuten,Cell potential [V],Anode potential [V],I [mA]
9.59147,0.06496,0.93332,1.82522,0.03788,9.54294,5.43179,1.61228,10000
9.68367,0.06737,0.93109,1.82379,0.03809,9.58127,5.43438,1.60214,10000
9.77587,0.06978,0.92886,1.82236,0.0383,9.61959,5.43443,1.60086,10000
9.86807,0.0722,0.92663,1.82093,0.0385,9.65792,5.43094,1.5968,10000
9.96027,0.07463,0.92413,1.8191,0.0387,9.69624,5.42807,1.60319,10000
10.05247,0.07706,0.92163,1.81726,0.03889,9.73457,5.43215,1.60058,10000
10.14467,0.07922,0.91928,1.81536,0.03911,9.77289,5.42872,1.59824,10000
10.23687,0.08133,0.91696,1.81346,0.03933,9.81122,5.43681,1.60105,10000
10.32906,0.08345,0.91464,1.81156,0.03954,9.84954,5.43451,1.60509,10000
10.42126,0.08559,0.91249,1.80965,0.03977,9.88787,5.4384,1.59991,10000
10.51346,0.08775,0.91049,1.80774,0.04001,9.92619,5.43023,1.60531,10000
10.60566,0.09014,0.90835,1.80581,0.04023,9.96452,5.43569,1.6037,10000
10.69786,0.09283,0.90606,1.80386,0.04043,10.00284,5.43446,1.6049,10000
10.79006,0.09551,0.90376,1.8019,0.04063,10.04117,5.43338,1.59944,10000
10.88226,0.09818,0.90145,1.79997,0.04083,10.07949,5.43005,1.59654,10000
10.97446,0.10071,0.89901,1.79812,0.04103,10.11782,5.43151,1.60102,10000
11.06666,0.10323,0.89658,1.79628,0.04122,10.15614,5.42804,1.60028,10000
11.15886,0.10537,0.89421,1.7947,0.04145,10.19447,5.42631,1.59831,10000
11.25105,0.1075,0.89184,1.79312,0.04167,10.23279,5.43135,1.60372,10000
11.34325,0.10964,0.88946,1.79155,0.0419,10.27112,5.42722,1.60046,10000
11.43545,0.11183,0.88711,1.78992,0.04214,10.30944,5.43284,1.60614,10000
11.52765,0.11406,0.88478,1.78827,0.0424,10.34777,5.43307,1.60622,10000
11.61985,0.11628,0.88264,1.78644,0.04264,10.38609,5.42915,1.60502,10000
11.71205,0.1185,0.88064,1.78449,0.04288,10.42442,5.43313,1.60437,10000
11.80425,0.12071,0.87864,1.78254,0.04311,10.46275,5.42496,1.60657,10000
11.89645,0.12296,0.87663,1.7806,0.04333,10.50107,5.42947,1.6023,10000
11.98865,0.12531,0.87462,1.77866,0.04354,10.5394,5.42999,1.60869,10000
12.08084,0.12769,0.87254,1.77674,0.04374,10.57772,5.42886,1.60246,10000
12.17304,0.13021,0.87016,1.77488,0.04394,10.61605,5.41944,1.60035,10000
12.26524,0.13274,0.86777,1.77302,0.04415,10.65437,5.41977,1.59599,10000
12.35744,0.13526,0.86539,1.77116,0.04435,10.6927,5.42236,1.60439,10000
12.44964,0.13781,0.86297,1.76925,0.04455,10.73102,5.42546,1.60692,10000
12.54184,0.14035,0.86054,1.76734,0.04474,10.76935,5.42878,1.60438,10000
12.63404,0.14296,0.85804,1.76543,0.04498,10.80767,5.42219,1.60753,10000
12.72624,0.1456,0.85551,1.76352,0.04522,10.846,5.42388,1.6034,10000
12.81844,0.14823,0.85299,1.76161,0.04546,10.88432,5.42495,1.60422,10000
12.91063,0.15069,0.85041,1.75966,0.04573,10.92265,5.43114,1.60625,10000
13.00283,0.15291,0.84774,1.75766,0.04603,10.96097,5.42467,1.60402,10000
13.09503,0.15499,0.84515,1.75556,0.04633,10.9993,5.4281,1.60042,10000
13.18723,0.1568,0.84273,1.75325,0.04665,11.03762,5.42073,1.60289,10000
13.27943,0.1586,0.84031,1.75093,0.04697,11.07595,5.42425,1.59993,10000
13.37163,0.16041,0.83789,1.74862,0.04728,11.11427,5.42279,1.60336,10000
13.46383,0.16268,0.83563,1.7467,0.04758,11.1526,5.4294,1.60531,10000
13.55603,0.16495,0.83337,1.74479,0.04787,11.19092,5.42606,1.60201,10000
13.64823,0.16767,0.83111,1.74296,0.04808,11.22925,5.41922,1.59987,10000
13.74043,0.17043,0.82885,1.74113,0.04828,11.26757,5.41802,1.60458,10000
13.83262,0.1732,0.82659,1.73931,0.04849,11.3059,5.42043,1.60228,10000
13.92482,0.17583,0.82431,1.73712,0.04867,11.34422,5.41927,1.59946,10000
14.01702,0.17837,0.82203,1.73467,0.04884,11.38255,5.42026,1.60018,10000
14.10922,0.18074,0.81972,1.73221,0.04902,11.42087,5.41833,1.5969,10000
14.20142,0.18293,0.81739,1.72975,0.04922,11.4592,5.42402,1.60301,10000
14.29362,0.18512,0.81505,1.72729,0.04941,11.49752,5.4215,1.60122,10000
14.38582,0.18733,0.81269,1.72494,0.04962,11.53585,5.42398,1.60421,10000
14.47802,0.18961,0.81019,1.72325,0.0499,11.57417,5.42206,1.59941,10000
14.57022,0.1919,0.8077,1.72152,0.05018,11.6125,5.41774,1.60171,10000
14.66241,0.1942,0.8054,1.71928,0.05046,11.65082,5.42267,1.59707,10000
14.75461,0.1965,0.8031,1.71705,0.05074,11.68915,5.42184,1.59655,10000
14.84681,0.19881,0.80081,1.71481,0.05101,11.72747,5.42628,1.60269,10000
14.93901,0.20113,0.79859,1.7122,0.05125,11.7658,5.42833,1.60076,10000
15.03121,0.20347,0.7964,1.70944,0.05148,11.80412,5.42762,1.60024,10000
15.12341,0.20592,0.79414,1.70672,0.05169,11.84245,5.42889,1.60494,10000
15.21561,0.20843,0.79185,1.70402,0.05188,11.88077,5.42933,1.60454,10000
15.30781,0.21095,0.78956,1.70132,0.05208,11.9191,5.42905,1.60093,10000
15.40001,0.21341,0.78734,1.69871,0.05228,11.95742,5.42876,1.59796,10000
15.4922,0.21573,0.78531,1.69629,0.05249,11.99575,5.42276,1.60033,10000
15.5844,0.21797,0.78319,1.69399,0.05271,12.03407,5.42765,1.59704,10000
15.6766,0.21996,0.78077,1.69211,0.05299,12.0724,5.42234,1.60297,10000
15.7688,0.22195,0.77834,1.69024,0.05327,12.11072,5.4216,1.59986,10000
15.861,0.22393,0.77592,1.68836,0.05355,12.14905,5.42269,1.59992,10000
15.9532,0.22607,0.77335,1.68602,0.05382,12.18737,5.42089,1.59768,10000
16.0454,0.22823,0.77075,1.68362,0.05408,12.2257,5.42034,1.60209,10000
16.1376,0.23056,0.76856,1.68102,0.05432,12.26402,5.42334,1.59843,10000
16.2298,0.23295,0.76646,1.67837,0.05455,12.30235,5.42073,1.60128,10000
16.322,0.23533,0.76437,1.67571,0.05478,12.34067,5.4205,1.60221,10000
16.41419,0.23767,0.76216,1.67343,0.05504,12.379,5.42629,1.59991,10000
16.50639,0.23997,0.75981,1.67156,0.05531,12.41732,5.42827,1.60505,10000
16.59859,0.24224,0.75737,1.66985,0.05558,12.45565,5.42486,1.59982,10000
16.69079,0.24447,0.75476,1.66841,0.05587,12.49397,5.42218,1.60209,10000
16.78299,0.2467,0.75215,1.66696,0.05617,12.5323,5.42429,1.6026,10000
16.87519,0.24892,0.74956,1.66549,0.05646,12.57062,5.42029,1.60196,10000
16.96739,0.25107,0.74748,1.66349,0.05672,12.60895,5.41692,1.60017,10000
17.05959,0.25323,0.7454,1.66149,0.05699,12.64727,5.42273,1.60095,10000
17.15179,0.25525,0.74355,1.65913,0.05725,12.6856,5.42698,1.59002,10000
17.24398,0.25723,0.74178,1.65667,0.05751,12.72392,5.4228,1.59562,10000
17.33618,0.25921,0.74,1.65421,0.05777,12.76225,5.42592,1.59541,10000
17.42838,0.26126,0.73788,1.65197,0.05805,12.80057,5.42111,1.58983,10000
17.52058,0.26336,0.73554,1.64988,0.05833,12.8389,5.41668,1.59828,10000
17.61278,0.2656,0.73305,1.64795,0.05864,12.87722,5.41842,1.60035,10000
17.70498,0.26814,0.73031,1.6463,0.05899,12.91555,5.41888,1.59901,10000
17.79718,0.27068,0.72756,1.64466,0.05934,12.95387,5.41197,1.60098,10000
17.88938,0.27319,0.72488,1.64291,0.05968,12.9922,5.41881,1.60572,10000
17.98158,0.27561,0.72246,1.64071,0.06003,13.03052,5.41704,1.60344,10000
18.07378,0.27799,0.72004,1.63853,0.06038,13.06885,5.41562,1.5989,10000
18.16597,0.28005,0.71762,1.63654,0.0607,13.10718,5.41509,1.60275,10000
18.25817,0.28211,0.71521,1.63455,0.06101,13.1455,5.41256,1.60174,10000
18.35037,0.28417,0.71279,1.63256,0.06132,13.18383,5.41522,1.60584,10000
18.44257,0.28625,0.71036,1.63112,0.06166,13.22215,5.41562,1.60334,10000
18.53477,0.28834,0.70793,1.62984,0.06199,13.26048,5.42223,1.59795,10000
18.62697,0.29045,0.70556,1.62844,0.06234,13.2988,5.42036,1.59643,10000
18.71917,0.2926,0.70326,1.62691,0.06271,13.33713,5.41986,1.5978,10000
18.81137,0.29475,0.70095,1.62539,0.06309,13.37545,5.41918,1.60327,10000
18.90357,0.29687,0.69869,1.62367,0.06344,13.41378,5.41935,1.59917,10000
18.99576,0.29894,0.69649,1.62157,0.06378,13.4521,5.42493,1.59684,10000
19.08796,0.301,0.69432,1.61945,0.06412,13.49043,5.42367,1.59733,10000
19.18016,0.30292,0.69256,1.61715,0.06442,13.52875,5.41725,1.6029,10000
19.27236,0.30484,0.6908,1.61485,0.06472,13.56708,5.41484,1.60435,10000
19.36456,0.30676,0.68904,1.61255,0.06503,13.6054,5.41635,1.6044,10000
19.45676,0.30883,0.68707,1.61058,0.06533,13.64373,5.41399,1.59926,10000
19.54896,0.3109,0.68508,1.60864,0.06564,13.68205,5.40963,1.59912,10000
19.64116,0.31319,0.68281,1.60676,0.06595,13.72038,5.40927,1.60456,10000
19.73336,0.31552,0.68047,1.6049,0.06627,13.7587,5.41561,1.60278,10000
19.82555,0.31784,0.67814,1.60304,0.06659,13.79703,5.41452,1.59975,10000
19.91775,0.32022,0.67576,1.60118,0.06691,13.83535,5.40996,1.60199,10000
20.00995,0.32266,0.67335,1.59931,0.06724,13.87368,5.41244,1.6008,10000
20.10215,0.32499,0.67088,1.59752,0.06757,13.912,5.41345,1.60544,10000
20.19435,0.32716,0.66833,1.59581,0.06791,13.95033,5.40917,1.58764,10000
20.28655,0.32933,0.66579,1.59411,0.06825,13.98865,5.41004,1.58517,10000
20.37875,0.3315,0.66326,1.59241,0.06858,14.02698,5.41136,1.59168,10000
20.47095,0.3336,0.66086,1.59077,0.06893,14.0653,5.4101,1.60092,10000
20.56315,0.3357,0.65846,1.58913,0.06927,14.10363,5.41516,1.60663,10000
20.65535,0.3379,0.6561,1.58747,0.06962,14.14195,5.40654,1.60082,10000
20.74754,0.34012,0.65376,1.58582,0.06996,14.18028,5.40269,1.60309,10000
20.83974,0.34234,0.65141,1.58416,0.07031,14.2186,5.41271,1.60349,10000
20.93194,0.34446,0.64918,1.58218,0.07065,14.25693,5.40903,1.60359,10000
21.02414,0.34652,0.64701,1.58002,0.07099,14.29525,5.41111,1.60019,10000
21.11634,0.34854,0.64486,1.57775,0.07133,14.33358,5.40863,1.5989,10000
21.20854,0.35051,0.64275,1.57529,0.07167,14.3719,5.40385,1.59945,10000
21.30074,0.35248,0.64063,1.57283,0.07201,14.41023,5.41035,1.6014,10000
21.39294,0.35449,0.63848,1.57045,0.07236,14.44855,5.40784,1.60294,10000
21.48514,0.35662,0.63621,1.56835,0.07273,14.48688,5.40052,1.60036,10000
21.57733,0.35879,0.63391,1.56627,0.07311,14.5252,5.39877,1.60127,10000
21.66953,0.36114,0.63148,1.56434,0.07347,14.56353,5.39806,1.6069,10000
21.76173,0.3635,0.62905,1.56241,0.07383,14.60185,5.40573,1.60352,10000
21.85393,0.36585,0.62662,1.56049,0.07419,14.64018,5.39905,1.60104,10000
21.94613,0.36801,0.62428,1.55849,0.07452,14.6785,5.40519,1.59579,10000
22.03833,0.37011,0.62196,1.55648,0.07485,14.71683,5.3963,1.59606,10000
22.13053,0.37195,0.61983,1.55428,0.0752,14.75515,5.40226,1.60281,10000
22.22273,0.37368,0.61778,1.55202,0.07556,14.79348,5.40269,1.59927,10000
22.31493,0.37542,0.61573,1.54976,0.07592,14.8318,5.39902,1.59567,10000
22.40712,0.37721,0.6136,1.5475,0.0763,14.87013,5.40268,1.59987,10000
22.49932,0.37908,0.61137,1.54526,0.0767,14.90845,5.40252,1.60057,10000
22.59152,0.38101,0.6091,1.54309,0.07711,14.94678,5.40404,1.59875,10000
22.68372,0.3833,0.60647,1.54141,0.07756,14.9851,5.40864,1.59655,10000
22.77592,0.38559,0.60384,1.53973,0.07801,15.02343,5.40329,1.5982,10000
22.86812,0.38788,0.60121,1.53805,0.07846,15.06175,5.40059,1.59815,10000
22.96032,0.39032,0.59845,1.53666,0.07887,15.10008,5.402,1.60402,10000
23.05252,0.39277,0.5957,1.53529,0.07928,15.1384,5.39597,1.60114,10000
23.14472,0.39503,0.5932,1.53365,0.07966,15.17673,5.39486,1.60308,10000
23.23692,0.39726,0.59074,1.53198,0.08004,15.21505,5.40045,1.59959,10000
23.32911,0.3995,0.58827,1.5303,0.08042,15.25338,5.40216,1.60324,10000
23.42131,0.40155,0.58603,1.52832,0.08079,15.2917,5.40095,1.60097,10000
23.51351,0.40344,0.58397,1.52608,0.08116,15.33003,5.39876,1.60313,10000
23.60571,0.40531,0.58191,1.5238,0.08152,15.36835,5.39499,1.60226,10000
23.69791,0.40714,0.57986,1.52149,0.08187,15.40668,5.40588,1.6037,10000
23.79011,0.40897,0.57781,1.51918,0.08222,15.445,5.4047,1.60396,10000
23.88231,0.41082,0.57574,1.51692,0.08258,15.48333,5.4029,1.60191,10000
23.97451,0.41288,0.57346,1.51495,0.083,15.52165,5.40386,1.60222,10000
24.06671,0.41494,0.57118,1.51298,0.08342,15.55998,5.39924,1.6032,10000
24.1589,0.41697,0.56883,1.51095,0.08385,15.5983,5.39654,1.60104,10000
24.2511,0.419,0.56647,1.50892,0.08429,15.63663,5.39832,1.59631,10000
24.3433,0.42103,0.56411,1.50689,0.08472,15.67496,5.40004,1.59982,10000
24.4355,0.42299,0.56176,1.50476,0.08513,15.71328,5.40375,1.60202,10000
24.5277,0.42492,0.55941,1.50257,0.08553,15.75161,5.39854,1.60173,10000
24.6199,0.42699,0.55704,1.50051,0.08593,15.78993,5.40393,1.60159,10000
24.7121,0.42914,0.55464,1.49851,0.08634,15.82826,5.40319,1.59799,10000
24.8043,0.4313,0.55225,1.49652,0.08675,15.86658,5.40224,1.59935,10000
24.8965,0.43346,0.54985,1.49457,0.08716,15.90491,5.4053,1.60088,10000
24.98869,0.4356,0.54741,1.49273,0.08758,15.94323,5.41519,1.60112,10000
25.08089,0.43774,0.54498,1.49089,0.088,15.98156,5.40634,1.6051,10000
25.17309,0.43976,0.54253,1.48908,0.08844,16.01988,5.39953,1.59899,10000
25.26529,0.44179,0.54008,1.48726,0.08888,16.05821,5.40798,1.60494,10000
25.35749,0.44381,0.53763,1.48545,0.08932,16.09653,5.40694,1.60233,10000
25.44969,0.44594,0.53527,1.48363,0.08978,16.13486,5.39863,1.60394,10000
25.54189,0.44808,0.53293,1.48181,0.09025,16.17318,5.40478,1.60672,10000
25.63409,0.45016,0.53058,1.47989,0.09071,16.21151,5.39514,1.60775,10000
25.72629,0.45222,0.52823,1.47795,0.09116,16.24983,5.39856,1.60712,10000
25.81849,0.45429,0.52588,1.47601,0.09161,16.28816,5.39688,1.6073,10000
25.91068,0.45635,0.52349,1.47402,0.09205,16.32648,5.3963,1.60588,10000
26.00288,0.45841,0.52106,1.47196,0.09249,16.36481,5.39441,1.60463,10000
26.09508,0.46046,0.51869,1.4699,0.09292,16.40313,5.3865,1.6021,10000
26.18728,0.46251,0.51644,1.46784,0.09336,16.44146,5.38793,1.60075,10000
26.27948,0.46455,0.51418,1.46579,0.09379,16.47978,5.39081,1.60153,10000
26.37168,0.4666,0.51193,1.46373,0.09422,16.51811,5.39216,1.59077,10000
26.46388,0.46856,0.50964,1.46156,0.09466,16.55643,5.39238,1.59066,10000
26.55608,0.47051,0.50734,1.45939,0.0951,16.59476,5.38588,1.59758,10000
26.64828,0.47243,0.50477,1.45726,0.09559,16.63308,5.39449,1.60322,10000
26.74047,0.47434,0.50218,1.45514,0.09608,16.67141,5.3936,1.60212,10000
26.83267,0.47626,0.49959,1.45301,0.09657,16.70973,5.39617,1.6038,10000
26.92487,0.47808,0.49713,1.45081,0.09705,16.74806,5.39188,1.6005,10000
27.01707,0.47984,0.49477,1.44855,0.09753,16.78638,5.39687,1.60082,10000
27.10927,0.48158,0.49266,1.44624,0.09797,16.82471,5.39614,1.59143,10000
27.20147,0.4833,0.49081,1.44388,0.09836,16.86303,5.39588,1.59779,10000
27.29367,0.48503,0.48896,1.44153,0.09876,16.90136,5.38927,1.60121,10000
27.38587,0.4868,0.48706,1.43925,0.09915,16.93968,5.39253,1.59576,10000
27.47807,0.48883,0.4849,1.43742,0.09957,16.97801,5.39393,1.59969,10000
27.57027,0.49086,0.48273,1.43558,0.09999,17.01633,5.38897,1.60412,10000
27.66246,0.49292,0.48007,1.43376,0.10052,17.05466,5.38822,1.60124,10000
27.75466,0.49498,0.47734,1.43194,0.10106,17.09298,5.39445,1.60008,10000
27.84686,0.49704,0.47462,1.43011,0.10159,17.13131,5.39359,1.60235,10000
27.93906,0.49887,0.47207,1.42798,0.10212,17.16963,5.38967,1.60416,10000
28.03126,0.50061,0.4696,1.42572,0.10263,17.20796,5.38215,1.59916,10000
28.12346,0.50238,0.46724,1.42351,0.10312,17.24628,5.39234,1.59823,10000
28.21566,0.50418,0.46501,1.42135,0.10359,17.28461,5.39257,1.59758,10000
28.30786,0.50598,0.46279,1.41918,0.10406,17.32293,5.39293,1.6012,10000
28.40006,0.50781,0.46049,1.41705,0.10454,17.36126,5.39371,1.60155,10000
28.49225,0.50969,0.45805,1.41497,0.10508,17.39958,5.39388,1.60376,10000
28.58445,0.51153,0.45564,1.41284,0.10561,17.43791,5.39113,1.60073,10000
28.67665,0.51324,0.45334,1.41054,0.10614,17.47623,5.39604,1.60358,10000
28.76885,0.51494,0.45104,1.40824,0.10666,17.51456,5.39196,1.60099,10000
28.86105,0.51664,0.44874,1.40594,0.10719,17.55288,5.38804,1.60161,10000
28.95325,0.51837,0.44664,1.40368,0.10771,17.59121,5.39112,1.60019,10000
29.04545,0.52011,0.44456,1.40142,0.10822,17.62953,5.38196,1.60042,10000
29.13765,0.52199,0.44231,1.39939,0.10878,17.66786,5.38689,1.59746,10000
29.22985,0.52396,0.43994,1.39749,0.10936,17.70618,5.3937,1.60168,10000
29.32204,0.52592,0.43758,1.39558,0.10993,17.74451,5.38771,1.603,10000
29.41424,0.52798,0.43509,1.39381,0.11051,17.78283,5.38397,1.59936,10000
29.50644,0.53014,0.43246,1.39219,0.11107,17.82116,5.39054,1.59557,10000
29.59864,0.53228,0.4299,1.39045,0.11161,17.85948,5.3876,1.60029,10000
29.69084,0.53438,0.42745,1.3885,0.11212,17.89781,5.38305,1.60136,10000
29.78304,0.53649,0.425,1.38655,0.11263,17.93613,5.38222,1.59592,10000
29.87524,0.53857,0.42256,1.38457,0.11313,17.97446,5.38703,1.59907,10000
29.96744,0.54019,0.42048,1.38203,0.11363,18.01278,5.38379,1.60014,10000
30.05964,0.54182,0.41839,1.37949,0.11414,18.05111,5.39442,1.60351,10000
30.15184,0.54323,0.41617,1.37712,0.11467,18.08943,5.38552,1.60204,10000
30.24403,0.54463,0.41394,1.37476,0.1152,18.12776,5.39426,1.60119,10000
30.33623,0.54603,0.41172,1.37239,0.11574,18.16608,5.39572,1.60047,10000
30.42843,0.54749,0.4093,1.37028,0.11631,18.20441,5.39067,1.59598,10000
30.52063,0.549,0.40675,1.36832,0.11692,18.24273,5.3949,1.60019,10000
30.61283,0.55063,0.40434,1.36627,0.11752,18.28106,5.39049,1.59856,10000
30.70503,0.55235,0.40204,1.36413,0.11813,18.31939,5.39147,1.60219,10000
30.79723,0.55407,0.39975,1.36199,0.11873,18.35771,5.39554,1.60024,10000
30.88943,0.55582,0.39748,1.35988,0.11934,18.39604,5.3909,1.60227,10000
30.98163,0.55769,0.39534,1.35789,0.11992,18.43436,5.38687,1.5997,10000
31.07382,0.55953,0.39315,1.35595,0.1205,18.47269,5.39249,1.59704,10000
31.16602,0.56116,0.39062,1.3545,0.12111,18.51101,5.38589,1.59012,10000
31.25822,0.56279,0.38808,1.35305,0.12172,18.54934,5.39291,1.59282,10000
31.35042,0.56443,0.38554,1.3516,0.12232,18.58766,5.39249,1.59795,10000
31.44262,0.56601,0.3829,1.35007,0.12295,18.62599,5.39632,1.59496,10000
31.53482,0.56758,0.38023,1.3485,0.12358,18.66431,5.39241,1.59002,10000
31.62702,0.56923,0.3778,1.34671,0.1242,18.70264,5.3933,1.59509,10000
31.71922,0.57096,0.37562,1.34467,0.12481,18.74096,5.39503,1.59068,10000
31.81142,0.57269,0.37343,1.34263,0.12542,18.77929,5.39638,1.59609,10000
31.90361,0.57439,0.37131,1.34055,0.12603,18.81761,5.39867,1.59375,10000
31.99581,0.57594,0.36952,1.33825,0.1266,18.85594,5.39649,1.59479,10000
32.08801,0.57748,0.36771,1.33595,0.12718,18.89426,5.39318,1.58744,10000
32.18021,0.579,0.36565,1.33384,0.1278,18.93259,5.39531,1.59383,10000
32.27241,0.58052,0.36359,1.33173,0.12842,18.97091,5.39465,1.58607,10000
32.36461,0.58204,0.36154,1.32962,0.12905,19.00924,5.38075,1.59002,10000
32.45681,0.58381,0.35894,1.32798,0.12976,19.04756,5.39481,1.59128,10000
32.54901,0.5856,0.35629,1.32638,0.13048,19.08589,5.3937,1.59542,10000
32.64121,0.58728,0.3537,1.3245,0.1312,19.12421,5.3916,1.59413,10000
32.73341,0.5889,0.35114,1.32247,0.13192,19.16254,5.39531,1.59259,10000
32.8256,0.59052,0.34858,1.32044,0.13264,19.20086,5.39638,1.5953,10000
32.9178,0.59208,0.34614,1.31846,0.13335,19.23919,5.39175,1.58904,10000
33.01,0.59359,0.34383,1.31652,0.13405,19.27751,5.39923,1.59528,10000
33.1022,0.59507,0.34153,1.31465,0.13475,19.31584,5.39943,1.59438,10000
33.1944,0.59651,0.33925,1.31302,0.13544,19.35416,5.40091,1.59121,10000
33.2866,0.59795,0.33697,1.3114,0.13612,19.39249,5.39449,1.59391,10000
33.3788,0.59938,0.33468,1.30974,0.13681,19.43081,5.39691,1.59489,10000
33.471,0.60077,0.33226,1.30779,0.13752,19.46914,5.3989,1.59679,10000
33.5632,0.60215,0.32985,1.30584,0.13823,19.50746,5.39644,1.59389,10000
33.65539,0.60366,0.32733,1.30414,0.13899,19.54579,5.39664,1.59538,10000
33.74759,0.60519,0.32478,1.3025,0.13975,19.58411,5.39731,1.59499,10000
33.83979,0.60672,0.32224,1.30086,0.14052,19.62244,5.39253,1.59761,10000
33.93199,0.60819,0.3199,1.29918,0.14129,19.66076,5.38788,1.59767,10000
34.02419,0.60964,0.31767,1.29748,0.14206,19.69909,5.38538,1.59681,10000
34.11639,0.61101,0.31552,1.29561,0.14285,19.73741,5.39301,1.59787,10000
34.20859,0.61229,0.3135,1.29347,0.14366,19.77574,5.39049,1.59803,10000
34.30079,0.61357,0.31147,1.29133,0.14447,19.81406,5.38615,1.59231,10000
34.39299,0.61491,0.30937,1.28931,0.14529,19.85239,5.38725,1.59286,10000
34.48518,0.61645,0.30701,1.28766,0.14613,19.89071,5.38499,1.59484,10000
34.57738,0.61799,0.30466,1.28601,0.14697,19.92904,5.38422,1.58271,10000
34.66958,0.61955,0.30217,1.28473,0.14781,19.96736,5.38761,1.58139,10000
34.76178,0.62111,0.29967,1.28346,0.14864,20.00569,5.39043,1.58134,10000
34.85398,0.62267,0.29717,1.28219,0.14948,20.04401,5.39082,1.58091,10000
