in Minuten,HCOO- (formate) [mol/L],OH- (hydroxide) [mol/L],CH3OH (methanol) [mol/L],CO32- [mol/L],in Minuten,Cell potential [V],Anode potential [V],I [mA]
9.59428,0.11298,1.84471,0.37893,0.01822,9.51789,5.05442,1.54499,9998.46761
9.69224,0.11479,1.84242,0.37677,0.0188,9.54083,5.05947,1.54404,9998.68265
9.79021,0.11661,1.84013,0.37461,0.01938,9.56376,5.05988,1.5447,9999.39517
9.88818,0.11842,1.838,0.3721,0.01999,9.5867,5.06219,1.54544,9997.58221
9.98614,0.12002,1.83611,0.36937,0.02066,9.60963,5.06219,1.54493,9997.41151
10.08411,0.12162,1.83421,0.36663,0.02133,9.63256,5.06085,1.54491,9998.87855
10.18207,0.12322,1.83232,0.3639,0.022,9.6555,5.06216,1.54462,9997.82736
10.28004,0.12482,1.83042,0.36117,0.02267,9.67843,5.06144,1.54523,9998.98271
10.37801,0.12633,1.82834,0.35869,0.02333,9.70137,5.05916,1.54686,9998.32192
10.47597,0.12787,1.82583,0.35647,0.02402,9.7243,5.05548,1.54929,10000.74425
10.57394,0.12942,1.82328,0.35427,0.02471,9.74724,5.0573,1.55178,9997.87049
10.6719,0.13097,1.82073,0.35207,0.0254,9.77017,5.05817,1.54988,9998.31598
10.76987,0.13251,1.81818,0.34987,0.02609,9.79311,5.05664,1.54645,9998.02365
10.86784,0.13423,1.81565,0.34762,0.02683,9.81604,5.05242,1.54169,9997.64771
10.9658,0.13624,1.81275,0.3454,0.02761,9.83898,5.05632,1.54319,9997.33494
11.06377,0.13828,1.80976,0.34319,0.0284,9.86191,5.05625,1.53919,9999.50692
11.16173,0.14033,1.80677,0.34098,0.02919,9.88485,5.05563,1.53942,9998.87354
11.2597,0.14237,1.80378,0.33877,0.02998,9.90778,5.05662,1.54011,9999.56748
11.35767,0.14424,1.80097,0.33631,0.03077,9.93072,5.05938,1.53906,9998.29218
11.45563,0.14583,1.7988,0.33347,0.03154,9.95365,5.05263,1.5346,9998.45259
11.5536,0.14737,1.79682,0.33057,0.03231,9.97658,5.05122,1.53436,9999.44265
11.65156,0.1489,1.79484,0.32767,0.03307,9.99952,5.05666,1.5355,9997.93356
11.74953,0.15044,1.79285,0.32476,0.03384,10.02245,5.05417,1.5337,9997.76736
11.8475,0.15194,1.79077,0.32209,0.03461,10.04539,5.05074,1.53232,9998.73155
11.94546,0.15336,1.7884,0.32002,0.03545,10.06832,5.05685,1.5342,9998.19181
12.04343,0.15476,1.78594,0.31817,0.03632,10.09126,5.05159,1.53357,9997.74237
12.1414,0.15616,1.78347,0.31632,0.03718,10.11419,5.05183,1.5347,9997.96134
12.23936,0.15756,1.781,0.31447,0.03805,10.13713,5.05365,1.5346,9998.94914
12.33733,0.15902,1.77843,0.31256,0.03892,10.16006,5.05946,1.53441,10000.53344
12.43529,0.16073,1.77555,0.31043,0.03979,10.183,5.06058,1.53337,9998.35884
12.53326,0.16256,1.77257,0.30821,0.04062,10.20593,5.05647,1.53397,9997.77381
12.63123,0.16438,1.76959,0.30598,0.04146,10.22887,5.05992,1.53291,9998.85494
12.72919,0.16621,1.76661,0.30375,0.04229,10.2518,5.05927,1.53509,9996.29903
12.82716,0.16794,1.76383,0.30151,0.04312,10.27474,5.05564,1.53668,9998.5635
12.92512,0.16922,1.76188,0.29913,0.04395,10.29767,5.0559,1.53674,9998.14247
13.02309,0.17026,1.76024,0.29666,0.04477,10.32061,5.05962,1.53191,9998.27549
13.12106,0.1713,1.75861,0.29419,0.0456,10.34354,5.05955,1.53545,9999.24019
13.21902,0.17234,1.75697,0.29171,0.04642,10.36647,5.059,1.53684,9998.85269
13.31699,0.17345,1.75523,0.28931,0.04726,10.38941,5.06078,1.5381,9998.65192
13.41495,0.17505,1.75268,0.2874,0.04819,10.41234,5.05463,1.53962,9999.89695
13.51292,0.17677,1.74977,0.28554,0.0492,10.43528,5.05771,1.54163,9999.82481
13.61089,0.17849,1.74686,0.28368,0.05021,10.45821,5.05956,1.53938,9999.75886
13.70885,0.18021,1.74395,0.28183,0.05122,10.48115,5.05459,1.537,9998.22814
13.80682,0.18192,1.74105,0.27995,0.05223,10.50408,5.05672,1.53798,9998.89331
13.90478,0.18343,1.73821,0.27771,0.05322,10.52702,5.06051,1.53838,9998.19263
14.00275,0.18488,1.73572,0.27545,0.05416,10.54995,5.06161,1.54051,9996.60919
14.10072,0.18633,1.73324,0.2732,0.0551,10.57289,5.06219,1.54027,9997.30049
14.19868,0.18779,1.73075,0.27095,0.05604,10.59582,5.06186,1.54498,9998.02861
14.29665,0.18924,1.72827,0.2687,0.05698,10.61876,5.06066,1.54842,9999.36592
14.39461,0.19022,1.72627,0.26614,0.05797,10.64169,5.05495,1.5517,9997.86728
14.49258,0.19122,1.72413,0.2635,0.05899,10.66463,5.05962,1.55191,9998.35426
14.59055,0.19223,1.722,0.26086,0.06002,10.68756,5.06114,1.55038,9998.12823
14.68851,0.19324,1.71986,0.25822,0.06105,10.71049,5.05736,1.54973,9998.53188
14.78648,0.19425,1.71773,0.25558,0.06207,10.73343,5.05461,1.5515,9999.18645
14.88445,0.1956,1.71525,0.25319,0.06311,10.75636,5.06091,1.54802,9996.61128
14.98241,0.19669,1.71307,0.25067,0.06415,10.7793,5.05851,1.54795,9999.70363
15.08038,0.19779,1.71088,0.24815,0.06519,10.80223,5.06171,1.54526,9998.48413
15.17834,0.19888,1.7087,0.24563,0.06623,10.82517,5.06063,1.54497,9999.31618
15.27631,0.19997,1.70652,0.24311,0.06728,10.8481,5.05842,1.544,9997.72324
15.37428,0.20078,1.70452,0.24076,0.06831,10.87104,5.06139,1.54024,9999.75525
15.47224,0.2016,1.70245,0.23879,0.06935,10.89397,5.06318,1.53916,9997.90331
15.57021,0.20243,1.70037,0.23686,0.07038,10.91691,5.06033,1.53596,9999.80507
15.66817,0.20327,1.69829,0.23493,0.07142,10.93984,5.06159,1.53757,9998.01057
15.76614,0.20411,1.69621,0.23301,0.07246,10.96278,5.06137,1.53714,9998.3553
15.86411,0.20512,1.69403,0.23097,0.07353,10.98571,5.06178,1.53717,9997.96036
15.96207,0.20628,1.69155,0.22872,0.07469,11.00865,5.05508,1.53868,10001.09271
16.06004,0.20747,1.68892,0.22637,0.07588,11.03158,5.0595,1.53898,9997.7018
16.158,0.20867,1.68628,0.22402,0.07708,11.05451,5.05985,1.53681,9998.2879
16.25597,0.20986,1.68365,0.22166,0.07827,11.07745,5.06282,1.5373,9998.3086
16.35394,0.21099,1.68117,0.21925,0.07946,11.10038,5.06256,1.53495,9999.05557
16.4519,0.21194,1.67912,0.21691,0.08063,11.12332,5.06548,1.53465,10000.12362
16.54987,0.21284,1.67719,0.21461,0.08178,11.14625,5.05758,1.53281,9998.23031
16.64783,0.21374,1.67527,0.21232,0.08293,11.16919,5.0596,1.53165,9998.74562
16.7458,0.21464,1.67334,0.21002,0.08408,11.19212,5.06199,1.53357,9998.08383
16.84377,0.21546,1.67123,0.20778,0.08527,11.21506,5.06077,1.53339,9997.90926
16.94173,0.21613,1.66856,0.20579,0.08654,11.23799,5.05852,1.53316,9998.35915
17.0397,0.2168,1.66569,0.20392,0.08784,11.26093,5.05961,1.53409,9997.54603
17.13766,0.21747,1.66283,0.20205,0.08914,11.28386,5.06224,1.53466,9997.58202
17.23563,0.21813,1.65996,0.20019,0.09045,11.3068,5.05874,1.53455,9999.78437
17.3336,0.21887,1.65722,0.19827,0.09175,11.32973,5.05575,1.53473,9998.02088
17.43156,0.21978,1.65502,0.19605,0.09306,11.35267,5.05619,1.53581,9997.3951
17.52953,0.22073,1.65312,0.19356,0.09436,11.3756,5.05671,1.53929,9998.10552
17.62749,0.22167,1.65122,0.19108,0.09566,11.39853,5.06037,1.53743,9998.27591
17.72546,0.22262,1.64932,0.1886,0.09696,11.42147,5.05809,1.5345,9998.54038
17.82343,0.22347,1.64746,0.18607,0.09827,11.4444,5.05714,1.53537,9999.26127
17.92139,0.22397,1.64554,0.18356,0.09962,11.46734,5.05631,1.53562,9998.03078
18.01936,0.22449,1.64326,0.18138,0.10101,11.49027,5.06046,1.53861,9997.77248
18.11733,0.22501,1.64097,0.17919,0.1024,11.51321,5.06036,1.53737,9997.5055
18.21529,0.22554,1.63869,0.17701,0.1038,11.53614,5.05153,1.53973,9997.56416
18.31326,0.22611,1.63637,0.17488,0.10519,11.55908,5.06141,1.53893,9997.28234
18.41122,0.22704,1.63382,0.17311,0.10657,11.58201,5.0578,1.54045,9998.32997
18.50919,0.22779,1.63162,0.17108,0.10794,11.60495,5.06056,1.54271,9998.62928
18.60716,0.22854,1.62943,0.16905,0.10932,11.62788,5.05874,1.5449,9998.96106
18.70512,0.2293,1.62723,0.16703,0.11069,11.65082,5.06085,1.54297,10000.17514
18.80309,0.23005,1.62503,0.165,0.11207,11.67375,5.05858,1.54409,9999.12064
18.90105,0.23047,1.62287,0.16288,0.11353,11.69669,5.06095,1.54875,9997.67685
18.99902,0.23083,1.6207,0.16067,0.11503,11.71962,5.05886,1.54954,9997.06689
19.09699,0.23119,1.61854,0.15845,0.11652,11.74256,5.05972,1.55102,9998.0547
19.19495,0.23154,1.61637,0.15623,0.11802,11.76549,5.06011,1.55185,9998.50079
19.29292,0.2319,1.61421,0.15401,0.11951,11.78842,5.05879,1.55048,9998.62785
19.39088,0.23195,1.61226,0.15162,0.12104,11.81136,5.06245,1.55312,9999.92951
19.48885,0.23193,1.61018,0.1497,0.12262,11.83429,5.0635,1.55737,9998.0576
19.58682,0.23192,1.6081,0.14779,0.12419,11.85723,5.05907,1.55673,9998.9283
19.68478,0.2319,1.60602,0.14587,0.12576,11.88016,5.06142,1.55525,9999.57061
19.78275,0.23189,1.60394,0.14396,0.12734,11.9031,5.06549,1.55095,9998.15387
19.88071,0.23225,1.60136,0.14238,0.12894,11.92603,5.06446,1.54897,9997.68804
19.97868,0.23281,1.59862,0.1405,0.13054,11.94897,5.06194,1.55448,10000.11042
20.07665,0.23338,1.59588,0.13859,0.13216,11.9719,5.06324,1.55396,9999.44995
20.17461,0.23395,1.59314,0.13669,0.13377,11.99484,5.0517,1.55155,9997.78997
20.27258,0.23451,1.59039,0.13478,0.13538,12.01777,5.06311,1.55208,9998.5478
20.37054,0.23483,1.58814,0.13282,0.137,12.04071,5.06368,1.54692,9998.37836
20.46851,0.23475,1.58619,0.13087,0.13867,12.06364,5.06664,1.54399,9998.45762
20.56648,0.23461,1.58427,0.12893,0.14034,12.08658,5.05732,1.54484,9997.51764
20.66444,0.23448,1.58234,0.12699,0.14202,12.10951,5.06016,1.55303,9997.46533
20.76241,0.23434,1.58041,0.12506,0.1437,12.13244,5.06593,1.54795,9998.34765
20.86038,0.23436,1.57815,0.12323,0.14542,12.15538,5.06267,1.55199,9998.22381
20.95834,0.23461,1.57546,0.12158,0.14725,12.17831,5.0647,1.55148,9997.83608
21.05631,0.23491,1.57269,0.11997,0.1491,12.20125,5.0664,1.54773,9998.0836
21.15427,0.2352,1.56993,0.11836,0.15094,12.22418,5.06781,1.54694,9998.71728
21.25224,0.23549,1.56716,0.11674,0.15279,12.24712,5.06392,1.5483,9998.06935
21.35021,0.23555,1.56453,0.11477,0.15463,12.27005,5.06925,1.55661,9999.37858
21.44817,0.23533,1.5623,0.11227,0.15644,12.29299,5.0685,1.5584,9997.14851
21.54614,0.23509,1.56022,0.10969,0.15822,12.31592,5.06628,1.55939,9997.34364
21.6441,0.23485,1.55814,0.10712,0.16001,12.33886,5.0648,1.55748,9999.239
21.74207,0.23461,1.55606,0.10454,0.16179,12.36179,5.06628,1.56055,9998.4978
21.84004,0.23438,1.55401,0.10219,0.16359,12.38473,5.06871,1.55594,9999.90074
21.938,0.23404,1.552,0.10041,0.16546,12.40766,5.06345,1.55506,9998.76928
22.03597,0.23359,1.54998,0.09883,0.16739,12.4306,5.06706,1.55031,9998.55239
22.13393,0.23314,1.54796,0.09724,0.16931,12.45353,5.06592,1.5511,9998.51347
22.2319,0.23268,1.54594,0.09565,0.17124,12.47646,5.06409,1.55419,9997.9917
22.32987,0.23219,1.54388,0.09404,0.17317,12.4994,5.06694,1.55484,9999.03813
22.42783,0.23162,1.54169,0.09232,0.17512,12.52233,5.06211,1.55413,9997.58569
22.5258,0.23112,1.53945,0.09056,0.17707,12.54527,5.06776,1.55707,9997.77348
22.62376,0.23063,1.53721,0.0888,0.17902,12.5682,5.06863,1.5502,9999.03334
22.72173,0.23013,1.53497,0.08704,0.18097,12.59114,5.06393,1.56324,9998.28257
22.8197,0.22963,1.53273,0.08528,0.18292,12.61407,5.06466,1.55837,9998.49025
,,,,,12.63701,5.0653,1.55296,9998.29618
,,,,,12.65994,5.06056,1.54432,9997.82047
,,,,,12.68288,5.06518,1.54389,9999.43331
,,,,,12.70581,5.06031,1.53513,9999.27355
,,,,,12.72875,5.06282,1.53454,9998.22934
,,,,,12.75168,5.06332,1.53523,9996.87124
,,,,,12.77462,5.06224,1.53752,9999.15289
,,,,,12.79755,5.06224,1.53588,9997.99499
,,,,,12.82049,5.05804,1.53511,9998.26432
,,,,,12.84342,5.06558,1.53779,9998.68055
,,,,,12.86635,5.06413,1.54256,9997.5967
,,,,,12.88929,5.06515,1.54413,9998.17555
,,,,,12.91222,5.06499,1.54873,9998.51843
,,,,,12.93516,5.06458,1.55548,9997.84056
,,,,,12.95809,5.06367,1.55413,9997.76243
,,,,,12.98103,5.06158,1.54843,9998.56334
,,,,,13.00396,5.0622,1.54925,9998.5408
,,,,,13.0269,5.06443,1.54751,9998.08406
,,,,,13.04983,5.06444,1.55081,9998.4365
,,,,,13.07277,5.06251,1.54845,9998.80785
,,,,,13.0957,5.05947,1.54561,9998.27334
,,,,,13.11864,5.05463,1.55036,9996.98704
,,,,,13.14157,5.06044,1.5536,9996.7971
,,,,,13.16451,5.05908,1.54851,9998.7122
,,,,,13.18744,5.05242,1.54693,9998.62428
,,,,,13.21037,5.05956,1.55043,9998.35185
,,,,,13.23331,5.06001,1.55649,9997.91683
,,,,,13.25624,5.05846,1.54844,9998.33172
,,,,,13.27918,5.05209,1.55072,10000.01143
,,,,,13.30211,5.05906,1.55115,9998.16116
,,,,,13.32505,5.05685,1.55073,9998.04851
,,,,,13.34798,5.05612,1.55386,9998.10463
,,,,,13.37092,5.0538,1.54937,9998.38724
,,,,,13.39385,5.05092,1.54816,9999.14806
,,,,,13.41679,5.05704,1.54987,9996.89031
,,,,,13.43972,5.05623,1.55015,9998.22089
,,,,,13.46266,5.05955,1.54704,9998.4857
,,,,,13.48559,5.06265,1.54693,9998.705
,,,,,13.50853,5.05684,1.54913,9998.61766
,,,,,13.53146,5.05994,1.55154,9998.94665
,,,,,13.55439,5.06095,1.55592,9999.54441
,,,,,13.57733,5.064,1.55195,9998.83786
,,,,,13.60026,5.06129,1.55068,9997.74866
,,,,,13.6232,5.05975,1.54954,9998.12944
,,,,,13.64613,5.06173,1.5471,9999.03371
,,,,,13.66907,5.06025,1.54482,9997.56008
,,,,,13.692,5.05835,1.55037,9999.53571
,,,,,13.71494,5.05955,1.55234,9997.89182
,,,,,13.73787,5.05741,1.55013,9997.43857
,,,,,13.76081,5.06022,1.55099,9998.41844
,,,,,13.78374,5.05579,1.55197,9998.96837
,,,,,13.80668,5.06049,1.54451,9998.67359
,,,,,13.82961,5.05577,1.53884,9998.2564
,,,,,13.85255,5.0583,1.54013,9998.51419
,,,,,13.87548,5.06045,1.53841,9997.7628
,,,,,13.89841,5.06036,1.53982,9999.4303
,,,,,13.92135,5.06105,1.53862,9998.77305
,,,,,13.94428,5.05887,1.53821,9998.38576
,,,,,13.96722,5.0622,1.53678,9999.2622
,,,,,13.99015,5.06162,1.53735,9998.20407
,,,,,14.01309,5.06134,1.53739,9998.37285
,,,,,14.03602,5.06415,1.53705,9997.21741
,,,,,14.05896,5.05815,1.53357,9998.13825
,,,,,14.08189,5.06321,1.53678,9998.07203
,,,,,14.10483,5.05991,1.5367,9997.80817
,,,,,14.12776,5.06621,1.5367,9997.60082
,,,,,14.1507,5.05383,1.53592,9998.16626
,,,,,14.17363,5.06104,1.5399,9998.8184
,,,,,14.19657,5.06287,1.53542,9998.08441
,,,,,14.2195,5.0608,1.53856,9998.5635
,,,,,14.24244,5.05824,1.54057,9999.04963
,,,,,14.26537,5.05741,1.54026,9995.51797
,,,,,14.2883,5.05944,1.53995,9999.40389
,,,,,14.31124,5.05557,1.53911,9997.70294
,,,,,14.33417,5.06369,1.53784,10000.3318
,,,,,14.35711,5.05769,1.53537,9998.11081
,,,,,14.38004,5.06293,1.53387,9998.76743
,,,,,14.40298,5.06191,1.53518,9995.97695
,,,,,14.42591,5.0604,1.53618,9999.19601
,,,,,14.44885,5.06498,1.53973,9999.39044
,,,,,14.47178,5.06252,1.5391,9999.26024
,,,,,14.49472,5.06347,1.53827,9997.51117
,,,,,14.51765,5.0672,1.53895,10000.58458
,,,,,14.54059,5.06184,1.54015,9999.33088
,,,,,14.56352,5.06076,1.54208,9998.07816
,,,,,14.58646,5.06273,1.54429,9999.24095
,,,,,14.60939,5.05969,1.54447,9997.04739
,,,,,14.63232,5.0607,1.54353,9997.50229
,,,,,14.65526,5.06715,1.5449,9998.3329
,,,,,14.67819,5.06651,1.54718,9999.74342
,,,,,14.70113,5.06696,1.5381,9997.6669
,,,,,14.72406,5.06246,1.54056,9999.24693
,,,,,14.747,5.06129,1.5407,9998.76447
,,,,,14.76993,5.06533,1.54212,9998.55789
,,,,,14.79287,5.05975,1.54111,9997.79573
,,,,,14.8158,5.06593,1.54549,9998.64566
,,,,,14.83874,5.06561,1.54425,9998.32166
,,,,,14.86167,5.06938,1.54712,9997.66978
,,,,,14.88461,5.06741,1.53908,9998.09093
,,,,,14.90754,5.06776,1.54021,9999.01006
,,,,,14.93048,5.07069,1.5483,9998.19309
,,,,,14.95341,5.06393,1.54973,9996.61904
,,,,,14.97634,5.06803,1.55015,9998.14931
,,,,,14.99928,5.06651,1.54698,9998.43767
,,,,,15.02221,5.06453,1.54613,9999.22657
,,,,,15.04515,5.06716,1.54879,9998.82783
,,,,,15.06808,5.06942,1.5508,9998.77409
,,,,,15.09102,5.06595,1.54471,9997.77408
,,,,,15.11395,5.06688,1.54543,9998.12615
,,,,,15.13689,5.0645,1.54931,9998.28565
,,,,,15.15982,5.06468,1.55507,9997.35883
,,,,,15.18276,5.0642,1.55111,9997.19638
,,,,,15.20569,5.06902,1.55057,9997.87203
,,,,,15.22863,5.06825,1.55084,9998.04306
,,,,,15.25156,5.06733,1.55176,9998.92518
,,,,,15.2745,5.06584,1.54807,9997.57083
,,,,,15.29743,5.06701,1.55164,9997.88502
,,,,,15.32036,5.06672,1.55291,9996.90942
,,,,,15.3433,5.06586,1.55285,10000.52489
,,,,,15.36623,5.05808,1.55068,9998.58873
,,,,,15.38917,5.05962,1.55023,9998.61575
,,,,,15.4121,5.06651,1.5558,9999.04024
,,,,,15.43504,5.06593,1.55765,9997.15393
,,,,,15.45797,5.06605,1.55702,9996.79064
,,,,,15.48091,5.06277,1.55095,9998.39087
,,,,,15.50384,5.06015,1.54943,9998.01543
,,,,,15.52678,5.06135,1.54826,9999.13676
,,,,,15.54971,5.06168,1.54825,9997.80603
,,,,,15.57265,5.06239,1.5432,9997.86054
,,,,,15.59558,5.06298,1.54587,9998.75477
,,,,,15.61852,5.05896,1.54944,9998.1807
,,,,,15.64145,5.05998,1.55315,9998.50234
,,,,,15.66439,5.05784,1.55331,9997.89383
,,,,,15.68732,5.05796,1.54828,9997.71486
,,,,,15.71025,5.06093,1.55093,10000.2617
,,,,,15.73319,5.05998,1.54939,9999.03467
,,,,,15.75612,5.05853,1.54893,9998.55864
,,,,,15.77906,5.0525,1.55173,9998.18179
,,,,,15.80199,5.0607,1.54939,9998.78753
,,,,,15.82493,5.06211,1.55231,9998.27284
,,,,,15.84786,5.0572,1.55053,9997.71966
,,,,,15.8708,5.05752,1.54718,9998.07328
,,,,,15.89373,5.06006,1.54854,9997.73497
,,,,,15.91667,5.0559,1.54967,9998.28016
,,,,,15.9396,5.0534,1.55285,9998.63917
,,,,,15.96254,5.05432,1.5489,9997.98149
,,,,,15.98547,5.05398,1.54931,9998.89176
,,,,,16.00841,5.06272,1.55011,9998.35757
,,,,,16.03134,5.05807,1.54634,9998.48765
,,,,,16.05427,5.06365,1.54724,9998.2068
,,,,,16.07721,5.06467,1.54536,9997.52487
,,,,,16.10014,5.06402,1.54463,9997.09005
,,,,,16.12308,5.06468,1.54403,9997.16658
,,,,,16.14601,5.06174,1.54229,9999.69087
,,,,,16.16895,5.0633,1.54319,9999.0448
,,,,,16.19188,5.06429,1.54431,9998.25193
,,,,,16.21482,5.06207,1.54589,9998.01241
,,,,,16.23775,5.06632,1.54731,9998.54008
,,,,,16.26069,5.06332,1.54626,9997.42634
,,,,,16.28362,5.06292,1.54512,9998.34808
,,,,,16.30656,5.06087,1.547,9998.17889
,,,,,16.32949,5.06069,1.54905,9999.36608
,,,,,16.35243,5.05841,1.54976,9998.52742
,,,,,16.37536,5.05816,1.55209,9998.40144
,,,,,16.39829,5.0647,1.54936,9997.62758
,,,,,16.42123,5.06208,1.54888,9997.99621
,,,,,16.44416,5.06388,1.55143,9998.54708
,,,,,16.4671,5.06432,1.55127,9997.9268
,,,,,16.49003,5.06184,1.55327,9997.57401
,,,,,16.51297,5.0677,1.55224,9998.84679
,,,,,16.5359,5.06916,1.54939,9998.27941
,,,,,16.55884,5.06826,1.54728,9999.26072
,,,,,16.58177,5.06917,1.54953,9997.27739
,,,,,16.60471,5.06653,1.54729,9998.11176
,,,,,16.62764,5.06518,1.5453,9997.98236
,,,,,16.65058,5.06863,1.54502,9998.47463
,,,,,16.67351,5.06804,1.54343,9998.23122
,,,,,16.69645,5.06446,1.54353,9997.5449
,,,,,16.71938,5.06367,1.54476,9998.3086
,,,,,16.74231,5.06553,1.54414,9998.73566
,,,,,16.76525,5.06545,1.54478,9997.90408
,,,,,16.78818,5.06503,1.5457,9998.00163
,,,,,16.81112,5.06351,1.54431,9998.73303
,,,,,16.83405,5.06348,1.54345,9998.55698
,,,,,16.85699,5.06395,1.54472,10000.38975
,,,,,16.87992,5.06664,1.54267,9998.59678
,,,,,16.90286,5.06669,1.54231,9997.82822
,,,,,16.92579,5.06128,1.54692,9998.69686
,,,,,16.94873,5.06669,1.5464,9999.04267
,,,,,16.97166,5.06768,1.54776,9998.7587
,,,,,16.9946,5.06741,1.5491,9998.52196
,,,,,17.01753,5.0656,1.54651,9998.53613
,,,,,17.04047,5.06818,1.54716,9998.66436
,,,,,17.0634,5.06276,1.54598,9998.63002
,,,,,17.08634,5.06653,1.54696,9998.12113
,,,,,17.10927,5.06675,1.54838,9999.58138
,,,,,17.1322,5.06293,1.54739,9998.91881
,,,,,17.15514,5.06531,1.54583,9997.28576
,,,,,17.17807,5.06078,1.54867,9999.40676
,,,,,17.20101,5.06632,1.54947,9998.70189
,,,,,17.22394,5.06369,1.54957,9999.35566
,,,,,17.24688,5.06651,1.54756,9998.86265
,,,,,17.26981,5.06603,1.549,9999.80221
,,,,,17.29275,5.06218,1.5523,9999.5595
,,,,,17.31568,5.06496,1.55171,9998.81843
,,,,,17.33862,5.06573,1.55086,9998.82293
,,,,,17.36155,5.065,1.55152,9998.48288
,,,,,17.38449,5.06355,1.55267,9998.40968
,,,,,17.40742,5.06294,1.55063,9996.87881
,,,,,17.43036,5.06579,1.55074,9999.10889
,,,,,17.45329,5.06705,1.5506,10000.25977
,,,,,17.47622,5.06612,1.54901,9998.8228
,,,,,17.49916,5.06121,1.54612,9997.72695
,,,,,17.52209,5.0636,1.54594,9997.68236
,,,,,17.54503,5.06457,1.54696,9997.86807
,,,,,17.56796,5.06447,1.55042,9997.37821
,,,,,17.5909,5.0603,1.54759,9997.64902
,,,,,17.61383,5.06641,1.54981,9997.31488
,,,,,17.63677,5.06476,1.55001,9998.74118
,,,,,17.6597,5.06042,1.54694,9999.69625
,,,,,17.68264,5.06435,1.55083,9998.15085
,,,,,17.70557,5.06454,1.55269,9998.12409
,,,,,17.72851,5.06249,1.55142,9999.18886
,,,,,17.75144,5.06444,1.5524,9999.93286
,,,,,17.77438,5.06531,1.55208,9998.26866
